x (m)  Pressao
2.500 24997.134
5.000 24989.526
7.500 24981.271
10.000 24972.511
12.500 24963.320
15.000 24953.745
17.500 24943.820
20.000 24933.570
22.500 24923.016
25.000 24912.173
27.500 24901.057
30.000 24889.679
32.500 24878.049
35.000 24866.177
37.500 24854.071
40.000 24841.737
42.500 24829.183
45.000 24816.415
47.500 24803.438
50.000 24790.256
52.500 24776.876
55.000 24763.300
57.500 24749.534
60.000 24735.580
62.500 24721.442
65.000 24707.124
67.500 24692.629
70.000 24677.959
72.500 24663.117
75.000 24648.107
77.500 24632.929
80.000 24617.588
82.500 24602.084
85.000 24586.421
87.500 24570.600
90.000 24554.623
92.500 24538.492
95.000 24522.208
97.500 24505.775
100.000 24489.192
102.500 24472.463
105.000 24455.587
107.500 24438.568
110.000 24421.406
112.500 24404.102
115.000 24386.659
117.500 24369.076
120.000 24351.357
122.500 24333.501
125.000 24315.509
127.500 24297.384
130.000 24279.126
132.500 24260.736
135.000 24242.216
137.500 24223.565
140.000 24204.786
142.500 24185.879
145.000 24166.845
147.500 24147.685
150.000 24128.400
152.500 24108.990
155.000 24089.457
157.500 24069.802
160.000 24050.024
162.500 24030.126
165.000 24010.107
167.500 23989.969
170.000 23969.711
172.500 23949.336
175.000 23928.843
177.500 23908.233
180.000 23887.507
182.500 23866.666
185.000 23845.709
187.500 23824.639
190.000 23803.455
192.500 23782.157
195.000 23760.747
197.500 23739.225
200.000 23717.592
202.500 23695.848
205.000 23673.994
207.500 23652.030
210.000 23629.956
212.500 23607.774
215.000 23585.484
217.500 23563.085
220.000 23540.580
222.500 23517.967
225.000 23495.248
227.500 23472.423
230.000 23449.493
232.500 23426.457
235.000 23403.317
237.500 23380.072
240.000 23356.724
242.500 23333.272
245.000 23309.717
247.500 23286.059
250.000 23262.299
252.500 23238.437
255.000 23214.473
257.500 23190.409
260.000 23166.243
262.500 23141.977
265.000 23117.611
267.500 23093.144
270.000 23068.579
272.500 23043.914
275.000 23019.150
277.500 22994.288
280.000 22969.327
282.500 22944.268
285.000 22919.112
287.500 22893.858
290.000 22868.508
292.500 22843.060
295.000 22817.516
297.500 22791.876
300.000 22766.139
302.500 22740.307
305.000 22714.379
307.500 22688.356
310.000 22662.238
312.500 22636.025
315.000 22609.718
317.500 22583.316
320.000 22556.820
322.500 22530.231
325.000 22503.547
327.500 22476.770
330.000 22449.900
332.500 22422.937
335.000 22395.881
337.500 22368.733
340.000 22341.491
342.500 22314.158
345.000 22286.732
347.500 22259.215
350.000 22231.605
352.500 22203.904
355.000 22176.111
357.500 22148.227
360.000 22120.252
362.500 22092.186
365.000 22064.028
367.500 22035.780
370.000 22007.441
372.500 21979.012
375.000 21950.492
377.500 21921.881
380.000 21893.180
382.500 21864.389
385.000 21835.508
387.500 21806.537
390.000 21777.475
392.500 21748.323
395.000 21719.082
397.500 21689.750
400.000 21660.329
402.500 21630.817
405.000 21601.216
407.500 21571.524
410.000 21541.743
412.500 21511.871
415.000 21481.909
417.500 21451.857
420.000 21421.714
422.500 21391.481
425.000 21361.158
427.500 21330.743
430.000 21300.238
432.500 21269.641
435.000 21238.953
437.500 21208.174
440.000 21177.302
442.500 21146.338
445.000 21115.281
447.500 21084.130
450.000 21052.886
452.500 21021.548
455.000 20990.115
457.500 20958.586
460.000 20926.961
462.500 20895.239
465.000 20863.419
467.500 20831.499
470.000 20799.479
472.500 20767.357
475.000 20735.132
477.500 20702.802
480.000 20670.364
482.500 20637.818
485.000 20605.159
487.500 20572.386
490.000 20539.494
492.500 20506.479
495.000 20473.338
497.500 20440.064
500.000 20406.650
502.500 20373.089
505.000 20339.370
507.500 20305.483
510.000 20271.410
512.500 20237.134
515.000 20202.629
517.500 20167.861
520.000 20132.785
522.500 20097.335
525.000 20061.412
527.500 20024.864
530.000 19987.424
532.500 19948.581
535.000 19907.163
537.500 19859.653
540.000 19804.469
542.500 19777.170
545.000 19751.204
547.500 19725.238
550.000 19699.271
552.500 19673.303
555.000 19647.334
557.500 19621.365
560.000 19595.395
562.500 19569.424
565.000 19543.452
567.500 19517.480
570.000 19491.507
572.500 19465.533
575.000 19439.559
577.500 19413.584
580.000 19387.608
582.500 19361.631
585.000 19335.654
587.500 19309.676
590.000 19283.697
592.500 19257.717
595.000 19231.737
597.500 19205.755
600.000 19179.774
602.500 19153.791
605.000 19127.808
607.500 19101.823
610.000 19075.839
612.500 19049.853
615.000 19023.867
617.500 18997.879
620.000 18971.892
622.500 18945.903
625.000 18919.914
627.500 18893.923
630.000 18867.933
632.500 18841.941
635.000 18815.948
637.500 18789.955
640.000 18763.961
642.500 18737.967
645.000 18711.971
647.500 18685.975
650.000 18659.978
652.500 18633.981
655.000 18607.982
657.500 18581.983
660.000 18555.983
662.500 18529.983
665.000 18503.981
667.500 18477.979
670.000 18451.976
672.500 18425.972
675.000 18399.968
677.500 18373.963
680.000 18347.957
682.500 18321.950
685.000 18295.943
687.500 18269.934
690.000 18243.925
692.500 18217.916
695.000 18191.905
697.500 18165.894
700.000 18139.882
702.500 18113.869
705.000 18087.856
707.500 18061.841
710.000 18035.826
712.500 18009.811
715.000 17983.794
717.500 17957.777
720.000 17931.759
722.500 17905.740
725.000 17879.721
727.500 17853.700
730.000 17827.679
732.500 17801.658
735.000 17775.635
737.500 17749.612
740.000 17723.588
742.500 17697.563
745.000 17671.537
747.500 17645.511
750.000 17619.484
752.500 17593.456
755.000 17567.428
757.500 17541.399
760.000 17515.368
762.500 17489.338
765.000 17463.306
767.500 17437.274
770.000 17411.241
772.500 17385.207
775.000 17359.173
777.500 17333.137
780.000 17307.101
782.500 17281.065
785.000 17255.027
787.500 17228.989
790.000 17202.950
792.500 17176.910
795.000 17150.870
797.500 17124.828
800.000 17098.787
802.500 17072.744
805.000 17046.700
807.500 17020.656
810.000 16994.611
812.500 16968.566
815.000 16942.519
817.500 16916.472
820.000 16890.424
822.500 16864.375
825.000 16838.326
827.500 16812.276
830.000 16786.225
832.500 16760.173
835.000 16734.121
837.500 16708.068
840.000 16682.014
842.500 16655.960
845.000 16629.904
847.500 16603.848
850.000 16577.792
852.500 16551.734
855.000 16525.676
857.500 16499.617
860.000 16473.557
862.500 16447.497
865.000 16421.435
867.500 16395.374
870.000 16369.311
872.500 16343.248
875.000 16317.183
877.500 16291.119
880.000 16265.053
882.500 16238.987
885.000 16212.920
887.500 16186.852
890.000 16160.783
892.500 16134.714
895.000 16108.644
897.500 16082.573
900.000 16056.502
902.500 16030.430
905.000 16004.357
907.500 15978.283
910.000 15952.209
912.500 15926.134
915.000 15900.058
917.500 15873.982
920.000 15847.904
922.500 15821.826
925.000 15795.748
927.500 15769.668
930.000 15743.588
932.500 15717.507
935.000 15691.426
937.500 15665.343
940.000 15639.260
942.500 15613.176
945.000 15587.092
947.500 15561.007
950.000 15534.921
952.500 15508.834
955.000 15482.747
957.500 15456.659
960.000 15430.570
962.500 15404.480
965.000 15378.390
967.500 15352.299
970.000 15326.207
972.500 15300.115
975.000 15274.022
977.500 15247.928
980.000 15221.833
982.500 15195.738
985.000 15169.642
987.500 15143.545
990.000 15117.448
992.500 15091.349
995.000 15065.250
997.500 15039.151
1000.000 15013.051
